freq,psd_x,psd_y,psd_z,psd_xyz
0.0,6.935e+02,1.096e+01,1.098e+01,7.154e+02
1.5,4.229e+02,3.712e+01,3.641e+01,4.964e+02
3.0,6.120e+01,4.043e+01,3.938e+01,1.410e+02
4.5,3.059e+02,4.496e+01,3.815e+01,3.890e+02
6.0,1.157e+03,4.601e+01,3.890e+01,1.242e+03
7.5,1.968e+03,4.090e+01,3.835e+01,2.047e+03
9.0,2.597e+03,4.087e+01,3.884e+01,2.677e+03
10.5,3.531e+03,4.241e+01,3.847e+01,3.612e+03
12.0,4.704e+03,4.244e+01,3.842e+01,4.785e+03
13.5,5.644e+03,4.086e+01,4.003e+01,5.725e+03
15.0,7.056e+03,4.981e+01,4.231e+01,7.148e+03
16.5,8.954e+03,5.504e+01,4.244e+01,9.052e+03
18.0,1.117e+04,4.925e+01,4.140e+01,1.126e+04
19.5,1.384e+04,4.460e+01,4.334e+01,1.393e+04
21.0,1.818e+04,4.741e+01,5.091e+01,1.828e+04
22.5,2.016e+04,6.336e+01,4.653e+01,2.027e+04
23.9,2.018e+04,7.452e+01,4.041e+01,2.029e+04
25.4,1.886e+04,5.480e+01,4.342e+01,1.896e+04
26.9,1.851e+04,4.686e+01,4.368e+01,1.861e+04
28.4,1.973e+04,5.005e+01,4.485e+01,1.982e+04
29.9,2.223e+04,5.441e+01,4.333e+01,2.233e+04
31.4,2.565e+04,5.406e+01,4.225e+01,2.574e+04
32.9,2.925e+04,4.605e+01,4.880e+01,2.934e+04
34.4,3.294e+04,5.511e+01,5.612e+01,3.305e+04
35.9,3.694e+04,1.034e+02,9.230e+01,3.714e+04
37.4,4.144e+04,1.492e+02,1.268e+02,4.171e+04
38.9,4.618e+04,1.747e+02,1.506e+02,4.651e+04
40.4,5.177e+04,1.917e+02,2.098e+02,5.217e+04
41.9,5.769e+04,2.519e+02,3.014e+02,5.824e+04
43.4,6.414e+04,3.464e+02,4.235e+02,6.491e+04
44.9,7.193e+04,4.676e+02,5.564e+02,7.295e+04
46.4,8.207e+04,5.874e+02,7.198e+02,8.338e+04
47.9,9.504e+04,6.717e+02,8.334e+02,9.655e+04
49.4,1.085e+05,8.590e+02,1.099e+03,1.104e+05
50.9,1.226e+05,1.209e+03,1.888e+03,1.257e+05
52.4,1.390e+05,1.514e+03,3.081e+03,1.436e+05
53.9,1.583e+05,1.683e+03,4.209e+03,1.642e+05
55.4,1.832e+05,1.865e+03,5.459e+03,1.905e+05
56.9,2.168e+05,2.164e+03,6.902e+03,2.259e+05
58.4,2.505e+05,2.921e+03,9.101e+03,2.625e+05
59.9,2.975e+05,4.932e+03,1.490e+04,3.174e+05
61.4,3.690e+05,1.054e+04,2.490e+04,4.045e+05
62.9,4.549e+05,1.528e+04,2.819e+04,4.984e+05
64.4,5.601e+05,1.400e+04,1.977e+04,5.939e+05
65.9,7.678e+05,1.178e+04,1.181e+04,7.914e+05
67.4,1.140e+06,1.020e+04,6.071e+03,1.156e+06
68.8,1.738e+06,8.143e+03,2.096e+03,1.748e+06
70.3,2.602e+06,7.220e+03,5.967e+02,2.610e+06
71.8,3.502e+06,7.060e+03,7.694e+02,3.510e+06
73.3,3.969e+06,6.388e+03,1.648e+03,3.977e+06
74.8,3.864e+06,5.945e+03,2.222e+03,3.872e+06
76.3,3.392e+06,4.993e+03,2.198e+03,3.399e+06
77.8,2.906e+06,4.196e+03,2.063e+03,2.912e+06
79.3,2.442e+06,3.547e+03,1.700e+03,2.447e+06
80.8,1.975e+06,2.614e+03,1.281e+03,1.979e+06
82.3,1.613e+06,1.580e+03,1.068e+03,1.616e+06
83.8,1.323e+06,8.038e+02,9.813e+02,1.325e+06
85.3,1.093e+06,3.885e+02,8.262e+02,1.094e+06
86.8,9.068e+05,3.304e+02,5.839e+02,9.077e+05
88.3,7.663e+05,4.472e+02,4.107e+02,7.672e+05
89.8,6.676e+05,6.534e+02,3.187e+02,6.686e+05
91.3,6.357e+05,8.022e+02,5.132e+02,6.370e+05
92.8,6.746e+05,8.193e+02,1.179e+03,6.766e+05
94.3,7.477e+05,6.346e+02,2.170e+03,7.505e+05
95.8,8.113e+05,4.440e+02,3.026e+03,8.148e+05
97.3,8.523e+05,3.473e+02,3.573e+03,8.562e+05
98.8,8.613e+05,3.286e+02,3.834e+03,8.655e+05
100.3,8.402e+05,3.593e+02,3.782e+03,8.443e+05
101.8,8.004e+05,4.303e+02,3.456e+03,8.043e+05
103.3,7.776e+05,5.504e+02,3.078e+03,7.812e+05
104.8,7.557e+05,6.365e+02,2.735e+03,7.591e+05
106.3,7.215e+05,5.936e+02,2.540e+03,7.246e+05
107.8,6.666e+05,5.397e+02,2.437e+03,6.695e+05
109.3,5.962e+05,4.749e+02,2.312e+03,5.989e+05
110.8,5.535e+05,4.679e+02,2.374e+03,5.563e+05
112.3,5.595e+05,5.462e+02,3.017e+03,5.630e+05
113.7,5.784e+05,6.208e+02,3.933e+03,5.829e+05
115.2,5.695e+05,6.418e+02,4.378e+03,5.745e+05
116.7,4.804e+05,7.008e+02,4.600e+03,4.857e+05
118.2,3.612e+05,7.933e+02,4.908e+03,3.669e+05
119.7,3.599e+05,6.478e+02,4.103e+03,3.647e+05
121.2,5.149e+05,8.801e+02,4.547e+03,5.204e+05
122.7,5.937e+05,6.487e+02,4.381e+03,5.987e+05
124.2,5.960e+05,3.086e+02,3.902e+03,6.002e+05
125.7,5.809e+05,2.497e+02,3.914e+03,5.851e+05
127.2,5.704e+05,2.821e+02,3.871e+03,5.746e+05
128.7,5.817e+05,4.659e+02,3.703e+03,5.859e+05
130.2,5.916e+05,7.987e+02,3.204e+03,5.956e+05
131.7,5.336e+05,9.842e+02,2.488e+03,5.370e+05
133.2,2.040e+05,5.042e+02,1.060e+03,2.056e+05
134.7,3.811e+04,2.753e+02,3.586e+02,3.874e+04
136.2,3.716e+04,5.152e+02,3.436e+02,3.802e+04
137.7,4.154e+04,8.847e+02,4.442e+02,4.287e+04
139.2,4.926e+04,1.080e+03,5.101e+02,5.085e+04
140.7,6.022e+04,1.195e+03,5.909e+02,6.200e+04
142.2,6.621e+04,1.558e+03,7.897e+02,6.856e+04
143.7,6.437e+04,1.839e+03,9.896e+02,6.720e+04
145.2,5.772e+04,2.125e+03,1.098e+03,6.095e+04
146.7,5.250e+04,2.343e+03,1.168e+03,5.601e+04
148.2,4.446e+04,2.096e+03,1.131e+03,4.768e+04
149.7,3.634e+04,1.754e+03,1.114e+03,3.921e+04
151.2,3.022e+04,1.393e+03,1.252e+03,3.287e+04
152.7,2.544e+04,1.063e+03,1.611e+03,2.811e+04
154.2,2.267e+04,9.895e+02,1.645e+03,2.530e+04
155.7,2.040e+04,1.149e+03,1.350e+03,2.290e+04
157.2,1.898e+04,1.441e+03,1.137e+03,2.155e+04
158.7,1.704e+04,1.666e+03,1.090e+03,1.979e+04
160.1,1.426e+04,1.534e+03,1.057e+03,1.685e+04
161.6,1.218e+04,1.329e+03,9.378e+02,1.444e+04
163.1,1.095e+04,1.202e+03,8.841e+02,1.304e+04
164.6,9.444e+03,1.020e+03,8.691e+02,1.133e+04
166.1,7.959e+03,8.748e+02,8.854e+02,9.719e+03
167.6,6.977e+03,7.931e+02,9.355e+02,8.706e+03
169.1,6.436e+03,6.612e+02,1.032e+03,8.130e+03
170.6,5.705e+03,5.516e+02,1.012e+03,7.268e+03
172.1,4.769e+03,4.345e+02,9.112e+02,6.115e+03
173.6,4.153e+03,3.824e+02,8.589e+02,5.395e+03
175.1,4.015e+03,3.490e+02,8.302e+02,5.194e+03
176.6,3.679e+03,3.398e+02,8.380e+02,4.857e+03
178.1,2.913e+03,3.641e+02,7.381e+02,4.016e+03
179.6,2.705e+03,4.144e+02,6.577e+02,3.777e+03
181.1,2.474e+03,4.916e+02,6.613e+02,3.627e+03
182.6,2.582e+03,5.606e+02,6.838e+02,3.826e+03
184.1,2.557e+03,6.517e+02,7.315e+02,3.941e+03
185.6,2.294e+03,8.173e+02,8.042e+02,3.915e+03
187.1,2.164e+03,9.292e+02,8.266e+02,3.920e+03
188.6,2.081e+03,1.002e+03,8.093e+02,3.892e+03
190.1,2.221e+03,1.299e+03,8.948e+02,4.415e+03
191.6,2.416e+03,1.591e+03,9.980e+02,5.004e+03
193.1,2.373e+03,1.817e+03,1.008e+03,5.198e+03
194.6,2.294e+03,2.166e+03,1.060e+03,5.521e+03
196.1,2.491e+03,3.000e+03,1.073e+03,6.564e+03
197.6,3.130e+03,4.550e+03,1.176e+03,8.857e+03
199.1,3.891e+03,6.266e+03,1.516e+03,1.167e+04
